freq;frf;gradient x;gradient y;gradient z;gradient R
10.0;72.19436929523113;0.00025450386180779277;6.563554025712139e-05;-0.0001993558813221861;0.0033128827865290854
10.476190476190476;72.50527032791261;0.00030814796924803127;7.699220345196987e-05;-0.00023901416323768765;0.0037003181115740228
10.952380952380953;72.83628834196409;0.0003740549005668306;9.03044843024433e-05;-0.0002871217957859519;0.004160442328990836
11.428571428571429;73.1885054333369;0.00045555004269749825;0.000105954610054271;-0.0003458274779946242;0.0047102892255427645
11.904761904761905;73.5631499795904;0.0005570317072613438;0.00012441022883198188;-0.00041793673238631717;0.0053718696892855146
12.380952380952381;73.96162231341053;0.0006843788128530072;0.0001462452683647261;-0.0005071503534516698;0.006173924346999737
12.857142857142858;74.38552650883713;0.0008455398906701744;0.00017216595939044591;-0.000618404976208824;0.007154411157593737
13.333333333333332;74.83671010222244;0.001051397205959247;0.00020304298173904448;-0.0007583669539591125;0.008364090687141876
13.80952380952381;75.31731423823219;0.0013170559466930008;0.0002399504315316518;-0.0009361605918183246;0.009871780861554288
14.285714285714285;75.82983769492114;0.0016638033716376056;0.00028421139619490634;-0.001164461810130041;0.01177220197879794
14.761904761904763;76.37721965659237;0.0021221473454431806;0.00033744752921912;-0.0014611742389632712;0.01419792994837983
15.238095238095237;76.96294822090562;0.0027366367606220317;0.0004016243088809184;-0.001852056433144738;0.017338026070879548
15.714285714285714;77.59120486671907;0.003573704524893986;0.00047907055258354886;-0.002374944957342064;0.02146781627097331
16.19047619047619;78.26706018791162;0.0047347963422183365;0.000572420877321947;-0.0030867379132061604;0.026997866202649646
16.666666666666664;78.99674437959605;0.006379067455611286;0.0006843610558445769;-0.004075320620939518;0.034557166147157925
17.142857142857142;79.7880295550728;0.008764093504445989;0.0008168944764376371;-0.005480694129621578;0.045139730734770366
17.61904761904762;80.65078436368299;0.01232207024241381;0.0009694541894754022;-0.0075340343664637285;0.0603742055446432
18.095238095238095;81.59780330898738;0.01780972216974633;0.0011341820359803765;-0.010633581353357409;0.08304502548075375
18.57142857142857;82.64609198104047;0.026621168613280802;0.0012839885550079966;-0.015501050956761608;0.1181611667991146
19.047619047619047;83.81894614056344;0.041489151351765986;0.0013411422594443987;-0.02352781265514414;0.17530988255539331
19.523809523809526;85.14949611916256;0.0682011618563726;0.0010890814365429227;-0.037611428041205465;0.27431680455326884
20.0;86.68715966878099;0.12029458685519617;-9.970191658263402e-05;-0.06441528819921154;0.4604612291508776
20.476190476190474;88.51043140140136;0.233929953744954;-0.004223326530204112;-0.12143481175967329;0.8518287902316178
20.952380952380953;90.75530852565805;0.5256106589585469;-0.018756075474494673;-0.2640614804017125;1.819807427351392
21.428571428571427;93.68975282346078;1.4959029998429543;-0.08029824721157433;-0.7260723695251379;4.9214909176823065
21.904761904761905;97.96655912285954;6.732622383871686;-0.4842412886581339;-3.1520446962598094;21.037335945624875
22.38095238095238;106.00729806341653;105.2870148022235;-9.443390690132064;-47.53565578622825;312.8765085371978
22.857142857142854;109.36168542623285;-319.48423245789047;36.26154850205584;137.13214005800148;-887.2907377465631
23.333333333333332;99.71073920992839;-13.595123481611417;1.7810166029408099;5.614206788044634;-35.908485792201176
23.80952380952381;95.24981363328496;-3.0414845208407675;0.45760653830187026;1.2013171809931167;-7.591783177882691
24.285714285714285;92.40925928024751;-1.1835520596014268;0.20155924375487105;0.44591806341182366;-2.7857953389865138
24.76190476190476;90.35378985219708;-0.6037599552843763;0.11491718360716008;0.2164663047744196;-1.3376086571828463
25.238095238095237;88.76303187313741;-0.3619312777339184;0.07616424178173369;0.12321156436051817;-0.7534312822215167
25.714285714285715;87.48014346505572;-0.24168603388942972;0.05570450928492639;0.07797053349670247;-0.4720053911927447
26.19047619047619;86.41638816804107;-0.17446257350125902;0.04367173981167565;0.05325720783688886;-0.3192617426920462
26.666666666666664;85.51634610825309;-0.1336490661788786;0.03605438872826663;0.03857386410942604;-0.229032075464484
27.142857142857142;84.74267748530923;-0.10735022694195401;0.030979952218763828;0.02930404689087264;-0.17234801524832727
27.619047619047617;84.06850586327592;-0.08966746277423696;0.02747992035778979;0.023198670478941835;-0.13515437140712847
28.095238095238095;83.47315365545818;-0.07743625841626557;0.02501049391380911;0.019077711062612333;-0.11010306791134232
28.57142857142857;82.93943645434238;-0.06885375969871489;0.023242594133392618;0.01629261812119025;-0.09316631676402351
29.047619047619047;82.45161897483067;-0.06284609292554212;0.021958958548728293;0.014485389089903131;-0.08212340540388716
29.523809523809522;81.99343561051961;-0.05875385982161003;0.020995984194258365;0.013477404652876035;-0.07586481636065717
30.0;81.54555090851814;-0.05616359407660578;0.020202069985885116;0.013223257111751619;-0.07410570280669133
30.476190476190474;81.08145935110726;-0.05480442714562633;0.019396562763128143;0.013803137204929304;-0.07734529170467538
30.952380952380953;80.55988253756448;-0.0544557311142588;0.01832547444450232;0.015431250549386759;-0.08694007369557255
31.428571428571427;79.91058197267859;-0.05478526446933867;0.01669712141996117;0.018356680700545292;-0.1045421867952987
31.904761904761905;79.02416996258319;-0.054912534356140554;0.015241931202829719;0.021570755244895084;-0.12413257029499083
32.38095238095238;78.07265796044035;-0.052835875507079876;0.030196887786204128;0.007382979629434168;-0.034605482149544925
32.857142857142854;81.8881888707987;-0.0951314678531974;0.4554092024724921;-0.41263723056285934;2.6520522788311762
33.33333333333333;95.40750297225416;1.7730066547453218;0.4340407180727785;-1.5639436935658648;8.76285357309007
33.80952380952381;89.52536448475163;0.7947418741756882;-1.4796802682027552;1.0717078813859235;-7.309884590477889
34.285714285714285;86.97898947671959;0.23994326643668903;-0.37844634725108867;0.24451247110147187;-1.7299574978225924
34.76190476190476;85.92125925560467;0.1203880563414714;-0.1743782661584335;0.10294030304916776;-0.7606655312908921
35.23809523809524;85.42156607170513;0.07398609573921983;-0.10315192719285145;0.05677261624764216;-0.4415209571529673
35.71428571428571;85.20008233988082;0.05015335021102689;-0.06932214672016433;0.03601981056350948;-0.29800146513058284
36.19047619047619;85.14602591780755;0.035659711667739596;-0.04997712226772812;0.024640130533220745;-0.22037003832995838
36.666666666666664;85.20750978023952;0.02569762737001124;-0.037349744072592075;0.017417784664589642;-0.17272417675515203
37.14285714285714;85.35755854429624;0.018106018355979914;-0.028155886337048196;0.012230013729409177;-0.1404496471658299
37.61904761904762;85.58131046343185;0.011734821352117335;-0.020750147102596376;0.008049640726690926;-0.11656832360596153
38.095238095238095;85.87049119010992;0.0058607709454283645;-0.014163961177178141;0.004290128949841714;-0.09725015275136713
38.57142857142857;86.2207908219433;-6.615592308055925e-05;-0.007712963136301489;0.0005467453454210903;-0.08005249129688087
39.04761904761905;86.63054568762506;-0.006560788187937924;-0.0008009124912431444;-0.0035278260238599435;-0.06310299458338584
39.52380952380952;87.10007139741936;-0.014205894083820864;0.007210198341974997;-0.0083021135478356;-0.04462647409220096
40.0;87.63135994978055;-0.023762594929073594;0.017123831567819176;-0.014237486273740264;-0.022565805031595783
40.476190476190474;88.22801306319067;-0.0363256021277093;0.03007055309730262;-0.021979201061176578;0.005853972967786239
40.95238095238095;88.8953637503708;-0.053577738391586256;0.04776369483628041;-0.03249847821017868;0.044776801567888845
41.42857142857143;89.6407886103778;-0.0782452473538234;0.0729478697084979;-0.047340166074949994;0.10084036347907582
41.9047619047619;90.47425921373244;-0.11496614276683324;0.11024201550501281;-0.06908694431587604;0.18529392628048671
42.38095238095238;91.40924192112467;-0.1720516778630527;0.16782511019791252;-0.1022874879200111;0.31827051161620024
42.857142857142854;92.46415940639497;-0.2653153929466942;0.26104067320043695;-0.15544769025394797;0.5380398126647714
43.33333333333333;93.66483116769214;-0.42711863021740754;0.4207409410541986;-0.24567759343208934;0.9227922988765409
43.80952380952381;95.04875390405985;-0.7300921148542707;0.7146013103133343;-0.4107463121790231;1.6475619204558354
44.285714285714285;96.6731541655979;-1.3584623728360163;1.3089328730578702;-0.7450196241479896;3.1547600424129545
44.76190476190476;98.63170332387689;-2.8670619095687675;2.6814199549173683;-1.5293851809824546;6.771677193871663
45.238095238095234;101.09462470478489;-7.422947337158808;6.55622022788601;-3.856090585691109;17.671705717085885
45.714285714285715;104.4230127953077;-27.08149904049447;21.67481809526019;-13.79572119611127;64.52973547090964
46.19047619047619;108.9050730949096;-11.632894993141527;54.58762219292145;-0.5036873331423434;32.90389687029526
46.666666666666664;116.77151890763199;-264.33021623097795;459.87073566644557;-102.74811025127298;773.9013809239601
47.14285714285714;113.43551347488838;286.5922230462002;-318.77941607027935;105.90370130734068;-661.2846263475215
47.61904761904762;107.43726445445306;44.2734102327369;-47.19515703187029;15.37049310459406;-98.33800539013941
48.095238095238095;103.93436256650644;14.074936164791852;-14.397854828242926;4.489755535760042;-29.765146549151925
48.57142857142857;101.58160738457964;6.4567448248543196;-6.365261544737418;1.8587249025503716;-12.880119753626852
49.047619047619044;99.8689748098087;3.643579254398084;-3.4675990122823226;0.9284132560416654;-6.778046993057621
49.52380952380952;98.56726563087281;2.3495465761953596;-2.159119352747209;0.517646679775683;-4.018579765732269
50.0;97.5559042599402;1.6647382110420659;-1.4762558687788552;0.307584089404178;-2.5714532336130045
50.476190476190474;96.76447204922721;1.2664367088472923;-1.0825447116378617;0.18798964874141305;-1.7258693384427564
50.95238095238095;96.14888931703618;1.0194553764156953;-0.8388419229140147;0.11377291212552178;-1.1869324468830644
51.42857142857142;95.68032069597294;0.8600437684171519;-0.6801694844810001;0.06406116758322057;-0.8158452546267307
51.904761904761905;95.3394848080518;0.7554538612941811;-0.5733139133718477;0.028188202772373154;-0.5401425831943785
52.38095238095238;95.11353407735454;0.6878639120492407;-0.5001200924067769;0.00019772018892345302;-0.318052702897188
52.857142857142854;94.99427806818495;0.6473322930842933;-0.45020149174424196;-0.023565399334289118;-0.12257056484090152
53.33333333333333;94.97717607143366;0.6285071179604255;-0.41750943915615524;-0.04562824421391442;0.06663040459250556
53.80952380952381;95.06081976624617;0.62908176655376;-0.3986459928826576;-0.06804367451149519;0.2681624935849126
54.285714285714285;95.24677731818934;0.6491938563499865;-0.3920537358443257;-0.09284484913073687;0.5030576385866241
54.76190476190476;95.53976253137846;0.6914910967271752;-0.39772887699246146;-0.12248729964517331;0.7997409849605992
55.238095238095234;95.9481695393587;0.7619090840535379;-0.41736464556344466;-0.1604583972771562;1.201990115693218
55.71428571428571;96.48510732610477;0.8715714243479382;-0.4550463232260984;-0.21234815638646667;1.7840167256360802
56.19047619047619;97.17022269999768;1.040939369593219;-0.5189623653476192;-0.288031427286638;2.6823711220143953
56.666666666666664;98.0329030622107;1.3091778758155515;-0.6254345817139594;-0.4066475673496295;4.170391707861193
57.14285714285714;99.11811598243963;1.757226184344946;-0.8090957653398204;-0.6093622184554791;6.852193330034004
57.61904761904761;100.49776271938846;2.5723870105916866;-1.1520312873647847;-0.9970296145232059;12.243179190641104
58.095238095238095;102.2948239990589;4.264314472993997;-1.88369538171811;-1.8641433251173893;24.859930699028975
58.57142857142857;104.74102554806983;8.596179290107564;-3.8245514556601448;-4.3181111666534875;61.98527972159196
59.047619047619044;108.33109575976083;24.437283255219686;-11.269786859460678;-14.476884024593893;220.469810665164
59.52380952380952;114.01863743300736;116.19484029427406;-55.81093131775265;-78.36220518118319;1237.0405692618212
60.0;115.17204328288545;-38.77031890476526;43.78523990714583;99.60511527157155;-1594.2024069217011
60.476190476190474;108.66130008707088;-4.930309908125347;8.026293139244647;19.4073781671424;-300.0991928273859
60.95238095238095;104.24687828835444;0.485125313616959;1.7469911301007413;5.155111910860912;-74.04403539066516
61.42857142857142;101.1017633879397;0.8802337437632453;0.5838484304541749;2.1405843758299055;-27.54947057499549
61.904761904761905;98.61506134265865;0.7678713412685866;0.25966183445533075;1.1563397410261018;-13.073188241414506
62.38095238095238;96.48170460968791;0.6277576305536599;0.14514955940301696;0.7298168128281661;-7.292730185862062
62.857142857142854;94.50939315332616;0.5128844520212762;0.09957071821688472;0.5032248513674974;-4.568763102286052
63.33333333333333;92.57284889746053;0.4063024032096251;0.07737922897370349;0.38594989779537225;-2.995243324464537
63.8095238095238;90.89318188771662;0.22136367891960285;0.033235964144704595;0.5186238307855544;-1.2296975971855915
64.28571428571428;91.81748500121886;-0.5707506459386701;-0.28455898044839334;2.417045454239126;5.514070801274224
64.76190476190476;98.64668364523433;-7.329663458975211;-3.6836291563618935;24.03704388177224;63.84427612884835
65.23809523809524;105.53425244117705;0.920262345559875;0.8902341876858237;-31.019414366002657;6.074415807579723
65.71428571428571;102.46144616867477;8.652688126293565;3.8466412258935057;-45.7434413680666;-62.80644273990695
66.19047619047619;100.06613628250489;3.1460022265768584;-0.02785405800915964;-17.128894791946458;-18.126209497557184
66.66666666666666;99.079724159321;1.5441731905698952;-0.9399938116480782;-8.250271136084184;-7.01234385448432
67.14285714285714;97.30287928137628;0.46775319783201463;5.95719031621801;-1.7115541174630977;-13.89791082503679
67.61904761904762;96.55850838998342;0.6970554048259874;1.000760551990699;-2.5627618073005265;-3.4670048234913455
68.0952380952381;96.71289438386678;0.6563234044216039;0.7645791348303482;-2.7637053591825986;-2.003662205246494
68.57142857142857;97.18927017785481;0.6007009296001141;0.833427755061453;-2.900016252505425;-1.0920921881069519
69.04761904761904;98.02314163255177;0.5099382596987324;1.0184706400455146;-3.245283072732425;0.06289316199681955
69.52380952380952;99.33001026633475;0.24617346639069596;1.40944564403636;-4.055588584039652;2.3387417239185484
70.0;101.3324570024676;-0.7838893914905091;2.325240780621834;-6.053838595071866;8.835324214393387
70.47619047619048;104.47968912758142;-6.001621374836707;5.0752381160188875;-12.338824605333839;35.88019085680881
70.95238095238095;109.27379426422999;-27.157275564160244;16.466463150031874;-35.11993118370152;142.0192851431372
71.42857142857142;109.1409440861873;69.3263252689313;17.54978270175036;4.156668107028528;-250.48766729478643
71.9047619047619;103.265654632403;16.58383843102257;5.003648301457828;1.8967716539786175;-61.60567122946527
72.38095238095238;99.00395772755063;4.805126065230818;2.058009756624356;0.630791312080152;-18.491622941120138
72.85714285714286;95.98432793077448;1.9621197768245726;1.0800770730339933;0.2787706011359893;-7.93711552489091
73.33333333333333;93.8216952934018;1.0338472599962711;0.5904666043567276;0.08163024331996314;-4.097845588674123
73.8095238095238;92.49862337035823;0.7367330947923225;0.18120989332780357;-0.07825952108541398;-2.013325978198308
74.28571428571428;92.3688156163426;0.7604867259049823;-0.46676315438995;-0.26692806882656;0.41056878935732066
74.76190476190476;94.32037300671905;0.5478179748753831;-2.454613020231018;-1.3468445592317588;10.930438556517341
75.23809523809524;98.45860799723829;5.4007420490154034;-8.291395332967953;7.087113714570037;27.972884770643805
75.71428571428571;104.17983200445369;34.69996095392069;-53.568658862697966;50.8695737949219;77.71847158336004
76.19047619047619;106.75772122480133;-1.2090247804640302;37.90985200737251;-79.11184938883805;63.48685336052115
76.66666666666666;103.15623834298225;-4.4312734401665645;20.228134036024354;-34.53064105637958;12.854737355852276
77.14285714285714;100.93768384029889;-3.164969892637315;6.510019945984198;-9.523186326697765;-1.1227547731760752
77.61904761904762;100.29896835195515;-8.110471564298038;3.2976397329477054;-0.5398699216909475;-14.994684665564337
78.09523809523809;101.39375295028142;-30.05168119675605;4.193680702240276;8.308767507902145;-51.36644985420231
78.57142857142857;105.16171096943019;-145.3497533531896;16.63759564308363;33.57606756455895;-209.48257738333456
79.04761904761904;108.29622618923489;45.490768680396684;-3.059883637188645;8.191265757428432;-135.00061544614613
79.52380952380952;105.88457842416572;73.26634234686388;-3.952570697197496;-12.517350357430638;6.339338258460288
80.0;104.80611883548247;28.88800411212367;2.323542885279211;-10.614891064631639;16.268712250268738
80.47619047619047;105.21356569799008;17.761090938974153;6.103680353156651;-11.832686311028867;37.94388885231169
80.95238095238095;106.71006082388074;16.691396720735952;12.741974600146689;-17.395317375228693;94.8894497446696
81.42857142857143;109.28382165658469;23.63374492033241;33.28523304660908;-32.87473789933192;259.27717345511587
81.9047619047619;111.65794634687171;59.280137522463555;106.76983412725612;40.37284348462996;-435.7308868908371
82.38095238095238;111.94882624451276;27.12086263151706;-24.14254779143343;27.909557238427958;-509.5675815343023
82.85714285714285;115.66522533695446;60.91659361969097;-162.63334574374008;-51.071904557970754;-359.2072807618867
83.33333333333333;112.54079182629565;47.77843929606527;-69.09044075221773;-28.85009540713585;-203.32746902520043
83.80952380952381;108.83221379688473;21.01327069044974;-20.93927789769151;-8.513282391612504;-68.04866710303232
84.28571428571428;106.27282317451234;12.112755680832846;-8.48366629503687;-3.158143134698187;-29.254604934714433
84.76190476190476;104.47759628561171;8.472117576053426;-4.178495329399111;-1.3244710311782926;-14.957489626858248
85.23809523809524;103.1975778874976;6.627244454961627;-2.3933235108736617;-0.5788993524536241;-8.381412004507277
85.71428571428571;102.36638917720543;4.766897448344376;-2.334044387569829;-0.5026832153901456;-4.4963091249218605
86.19047619047619;102.50907373009613;-3.188504469823982;-8.991356436783082;-2.5140816359765745;0.743874017043072
86.66666666666666;103.58497331515588;-4.2989618968465715;-5.403020363203299;-2.9930769233017434;-3.4299027855780047
87.14285714285714;103.06041878476078;0.9385996360024235;-1.4853474354776108;-1.234794613973369;-2.28628575601119
87.61904761904762;102.89568164136527;2.091067816449462;-2.0577734098561464;-0.8520358507520699;1.1648939921157508
88.09523809523809;103.17944864115239;3.133295157240262;-2.5079201732756258;-0.7589541732817333;4.489404391879329
88.57142857142857;103.84111060062891;4.542266166478992;-3.1741520139734836;-0.8695330315156234;9.235307294928877
89.04761904761904;104.89999251592596;6.883736345990764;-4.500172624622449;-1.2779492770768308;17.911875910694032
89.52380952380952;106.45031699144731;11.477827529831517;-7.559708659423944;-2.34283176621968;37.114114784166354
90.0;108.6855392935802;23.02636826364742;-15.771021005240236;-5.645499522077199;90.3944693993263
90.47619047619047;111.91258408274662;76.98556659289255;-36.58709930872532;-29.505721265243086;300.037906570391
90.95238095238095;115.7746271398091;189.66346558792634;-54.87625563559706;-82.36245300033178;613.8373743048534
